beat,p1,p2,p3,period,y,beat_error,rate_deviation,lift_time,amplitude
1,0.04712000000000064,0.059280000000000645,0.08200000000000064,?,0,?,?,0.03488,99.82905261735216
2,0.24504000000000065,0.25816000000000067,0.2701600000000007,0.19792,-0.0020799999999999985,?,?,0.02512000000000003,135.2672304132608
3,0.4471200000000007,0.4589600000000007,0.4834400000000007,0.20208000000000004,2.7755575615628914e-17,0.0020800000000000124,?,0.03632000000000002,96.28487351819594
4,0.6359200000000007,0.6456800000000007,0.6701600000000006,0.18880000000000002,-0.01119999999999996,0.006640000000000007,-1969.919999999992,0.03423999999999994,101.50645104100221
5,0.8469600000000007,0.8586400000000006,0.8828000000000007,0.21104,-0.00015999999999996573,0.011119999999999991,-2004.4799999999905,0.03583999999999998,97.43245299114177
6,1.0453600000000007,1.0589600000000008,1.0693600000000008,0.19840000000000002,-0.001759999999999956,0.006319999999999992,2004.4800000000023,0.02400000000000002,141.2565383666252
7,1.2455200000000008,1.2578400000000007,1.2821600000000009,0.20016000000000012,-0.0015999999999998515,0.0008800000000000474,1728.0000000000255,0.036640000000000006,95.53771169647686
8,1.433200000000001,1.4436000000000009,1.4682400000000009,0.18768000000000007,-0.013919999999999794,0.006240000000000023,-2937.5999999999403,0.03503999999999996,99.41988665173218
9,1.6447200000000008,1.6568800000000008,1.681840000000001,0.21151999999999993,-0.0023999999999998745,0.01191999999999993,-2799.3599999999697,0.03712000000000004,94.44288931516915
10,1.843120000000001,1.8549600000000008,1.867760000000001,0.19840000000000013,-0.003999999999999754,0.006559999999999899,1969.9200000000037,0.024639999999999995,137.76552367026093
11,2.0429600000000008,2.055280000000001,2.079440000000001,0.1998399999999998,-0.004159999999999969,0.0007199999999998319,1762.5599999999881,0.03648000000000007,95.90953457532828
12,2.240880000000001,2.246480000000001,2.265520000000001,0.19792000000000032,-0.0062399999999996625,0.0009599999999997388,-864.0000000000007,0.024639999999999773,137.7655236702621
13,2.442480000000001,2.454160000000001,2.478480000000001,0.2016,-0.004639999999999672,0.0018399999999998418,-587.5199999999161,0.03600000000000003,97.04628526842944
14,2.631440000000001,2.640720000000001,2.664560000000001,0.1889599999999998,-0.01567999999999989,0.006320000000000103,-2142.719999999985,0.03312000000000026,104.60774608780034
15,2.844720000000001,2.855920000000001,2.879280000000001,0.21328000000000014,-0.0023999999999997634,0.01216000000000017,-1555.2000000000685,0.034559999999999924,100.65949267050377
16,3.031760000000001,3.042000000000001,3.065520000000001,0.1870400000000001,-0.01535999999999968,0.01312000000000002,552.9600000000255,0.03376000000000001,102.80887993442222
17,3.245840000000001,3.257200000000001,3.280560000000001,0.21408000000000005,-0.0012799999999996425,0.013519999999999976,311.0400000000713,0.03471999999999964,100.24223617518736
18,3.433360000000001,3.443120000000001,3.468080000000001,0.1875199999999997,-0.013759999999999967,0.01328000000000018,587.519999999964,0.034720000000000084,100.24223617518622
19,3.645520000000001,3.656240000000001,3.680560000000001,0.21216000000000035,-0.0015999999999996295,0.01232000000000033,276.4799999999408,0.03503999999999996,99.41988665173218
20,3.834800000000001,3.8436000000000012,3.867920000000001,0.18927999999999967,-0.01231999999999997,0.011440000000000339,241.92000000000218,0.03312000000000026,104.60774608780034
21,4.044880000000001,4.056240000000001,4.079600000000001,0.21008000000000004,-0.0022399999999999365,0.010400000000000187,172.79999999993302,0.034720000000000084,100.24223617518622
22,4.232080000000001,4.24232,4.266000000000001,0.1871999999999998,-0.015040000000000137,0.011440000000000117,-725.7600000001023,0.03392000000000017,102.37039157870866
23,4.44664,4.457680000000001,4.481680000000001,0.21455999999999964,-0.0004800000000005078,0.013679999999999914,-207.36000000015937,0.035040000000000404,99.41988665173105
24,4.635280000000001,4.645200000000001,4.668240000000001,0.18864000000000036,-0.011840000000000156,0.012959999999999638,1071.3599999998723,0.0329600000000001,105.06901558075592
25,4.84792,4.859440000000001,4.882160000000001,0.2126399999999995,0.000799999999999329,0.011999999999999567,967.6799999999606,0.03424000000000049,101.50645104100073
26,5.047280000000001,5.051920000000001,5.0693600000000005,0.19936000000000043,0.00015999999999974368,0.006639999999999535,2868.479999999943,0.022079999999999878,152.97717194422674
27,5.248080000000001,5.259760000000001,5.282800000000001,0.2008000000000001,0.0009599999999998221,0.0007199999999998319,2626.5600000000845,0.034720000000000084,100.24223617518622
28,5.437360000000001,5.447280000000001,5.469200000000001,0.18928000000000011,-0.009760000000000074,0.005759999999999987,-2108.1599999998543,0.03183999999999987,108.43504630844558
29,5.648080000000001,5.6599200000000005,5.684080000000001,0.21072000000000024,0.0009600000000001552,0.010720000000000063,-2142.719999999889,0.03599999999999959,97.0462852684305
30,5.846800000000001,5.852240000000001,5.8695200000000005,0.19871999999999979,-0.00032000000000007023,0.006000000000000227,2039.0400000000727,0.02271999999999963,148.84481804379487
31,6.046640000000001,6.059120000000001,6.081360000000001,0.19984000000000002,-0.0004800000000000637,0.000560000000000116,1727.9999999999536,0.034720000000000084,100.24223617518622
32,6.245360000000001,6.261840000000001,6.269360000000001,0.19871999999999979,-0.0017600000000002891,0.000560000000000116,-622.0800000000945,0.02400000000000002,141.2565383666252
33,6.445360000000001,6.457200000000001,6.480080000000001,0.20000000000000018,-0.0017600000000001226,0.000640000000000196,-587.52000000006,0.034720000000000084,100.24223617518622
34,6.644080000000001,6.656720000000001,6.6679200000000005,0.19871999999999979,-0.003040000000000348,0.000640000000000196,-552.9600000000254,0.02383999999999986,142.15938657762953
35,6.84456,6.856240000000001,6.881520000000001,0.20047999999999977,-0.0025600000000005896,0.0008799999999999919,-449.28000000011355,0.03696000000000055,94.80443329713792
36,7.042960000000001,7.054640000000001,7.0666400000000005,0.19840000000000035,-0.004160000000000247,0.0010399999999997078,-414.720000000079,0.0236799999999997,143.07475977943142
37,7.2434400000000005,7.255600000000001,7.279280000000001,0.20047999999999977,-0.0036800000000004884,0.0010399999999997078,-483.83999999995626,0.035840000000000316,97.43245299114096
38,7.431280000000001,7.441680000000001,7.4663200000000005,0.18784000000000045,-0.01584000000000005,0.006319999999999659,-2764.799999999935,0.035039999999999516,99.41988665173331
39,7.642640000000001,7.6546400000000006,7.678800000000001,0.21136,-0.004480000000000067,0.01175999999999977,-2695.679999999866,0.03615999999999975,96.6637747371195
40,7.831600000000001,7.841360000000001,7.865520000000001,0.1889599999999998,-0.015520000000000284,0.011200000000000099,-103.6799999999598,0.03392000000000017,102.37039157870866
41,8.041680000000001,8.052240000000001,8.076880000000001,0.2100800000000005,-0.005439999999999806,0.010560000000000347,-138.23999999999435,0.035199999999999676,99.0146839420494
42,8.239760000000002,8.250960000000001,8.263120000000002,0.19808000000000092,-0.007359999999998895,0.005999999999999783,1555.2000000003563,0.02336000000000027,144.94410892279
43,8.440880000000002,8.452080000000002,8.476880000000001,0.20111999999999952,-0.006239999999999385,0.0015199999999992997,1589.7600000003908,0.03599999999999959,97.0462852684305
44,8.630320000000001,8.638960000000003,8.662000000000003,0.1894399999999994,-0.01680000000000001,0.005840000000000067,-2211.8400000001498,0.031680000000001485,108.93638500323914
45,8.839920000000001,8.850480000000001,8.874000000000002,0.2096,-0.007200000000000012,0.010080000000000311,-2246.400000000376,0.03408000000000122,101.93626886607429
46,9.038320000000002,9.049040000000002,9.062160000000002,0.19840000000000124,-0.008799999999998781,0.005599999999999383,1520.64000000013,0.02383999999999986,142.15938657762953
47,9.237840000000002,9.249360000000001,9.272720000000001,0.1995199999999997,-0.009279999999999095,0.0005599999999992278,1278.7200000004636,0.034879999999999356,99.82905261735382
48,9.435120000000001,9.448240000000002,9.459600000000002,0.19727999999999923,-0.011999999999999872,0.001120000000000232,-1140.4800000000373,0.0244800000000005,138.62069186962165
49,9.637520000000002,9.648400000000002,9.672720000000002,0.2024000000000008,-0.009599999999999081,0.002560000000000784,-760.3200000002328,0.035199999999999676,99.0146839420494
50,9.826480000000002,9.835280000000003,9.859920000000002,0.1889599999999998,-0.020639999999999298,0.006720000000000503,-1935.3599999998733,0.03344000000000058,103.69920242507767
51,10.036240000000001,10.047760000000002,10.070480000000002,0.20975999999999928,-0.010880000000000029,0.010399999999999743,-2142.7200000000803,0.03424000000000049,101.50645104100073
52,10.223760000000002,10.233520000000002,10.259760000000002,0.18752000000000102,-0.02335999999999902,0.01111999999999913,-864.0000000001446,0.03599999999999959,97.0462852684305
53,10.436240000000002,10.447440000000002,10.472720000000002,0.21247999999999934,-0.010879999999999695,0.012479999999999158,-587.5199999998681,0.036480000000000956,95.90953457532622
54,10.624400000000001,10.634800000000002,10.658160000000002,0.18815999999999988,-0.022719999999999824,0.012159999999999727,138.23999999989843,0.0337600000000009,102.80887993441979
55,10.837520000000001,10.849360000000003,10.872080000000002,0.21311999999999998,-0.009599999999999859,0.012480000000000047,414.7199999997913,0.03456000000000081,100.65949267050145
56,11.037200000000002,11.048720000000001,11.060240000000002,0.19968000000000075,-0.009919999999999124,0.006719999999999615,3041.280000000116,0.02303999999999995,146.8667127371371
57,11.237680000000003,11.249680000000001,11.273520000000001,0.20048000000000066,-0.009439999999998477,0.00039999999999995595,2799.3600000004494,0.03583999999999854,97.43245299114527
58,11.426800000000002,11.437040000000001,11.459280000000001,0.18911999999999907,-0.020319999999999422,0.0056800000000007955,-2211.839999999766,0.03247999999999962,106.48163659902087
59,11.639920000000002,11.651440000000003,11.673680000000003,0.21311999999999998,-0.007199999999999457,0.012000000000000455,-1762.560000000276,0.0337600000000009,102.80887993441979
60,11.830640000000002,11.838800000000003,11.862000000000002,0.19072000000000067,-0.0164799999999988,0.011199999999999655,1313.2799999999224,0.03135999999999939,109.95519934164903
61,12.039120000000002,12.050960000000002,12.074160000000003,0.20847999999999978,-0.007999999999999036,0.008879999999999555,656.6400000002251,0.035040000000000404,99.41988665173105
62,12.228880000000002,12.237360000000002,12.260880000000002,0.1897599999999997,-0.01823999999999934,0.009360000000000035,-552.9600000000254,0.03200000000000003,107.93897959773714
63,12.440080000000002,12.451440000000002,12.474800000000002,0.21119999999999983,-0.007039999999999519,0.010720000000000063,-172.80000000022073,0.034720000000000084,100.24223617518622
64,12.630160000000002,12.639440000000002,12.662160000000002,0.19008000000000003,-0.016959999999999503,0.010559999999999903,483.8399999998604,0.03200000000000003,107.93897959773714
65,12.841680000000002,12.852720000000001,12.874640000000003,0.21152000000000015,-0.005439999999999362,0.010720000000000063,622.0799999999987,0.03296000000000099,105.06901558075333
66,13.031760000000002,13.040560000000003,13.062800000000003,0.19008000000000003,-0.015359999999999346,0.010720000000000063,691.2000000000678,0.031040000000000845,110.99608118079533
67,13.241520000000003,13.253200000000001,13.275600000000003,0.20976000000000106,-0.005599999999998301,0.009840000000000515,311.04000000026315,0.034079999999999444,101.93626886607908
68,13.429840000000002,13.440080000000002,13.461840000000002,0.18831999999999915,-0.017279999999999157,0.010720000000000951,-449.27999999972985,0.03200000000000003,107.93897959773714
69,13.643440000000002,13.654320000000002,13.677680000000002,0.21359999999999957,-0.0036799999999996003,0.012640000000000207,-2.397655407548882e-10,0.03424000000000049,101.50645104100073
70,13.832720000000002,13.841840000000003,13.864080000000003,0.18928000000000011,-0.014399999999999497,0.012159999999999727,1036.799999999646,0.031360000000001165,109.95519934164332
71,14.041840000000002,14.052880000000002,14.076400000000003,0.20912000000000042,-0.005279999999999091,0.009920000000000151,276.48000000003674,0.03456000000000081,100.65949267050145
72,14.231760000000003,14.239280000000003,14.262000000000002,0.18992000000000075,-0.015359999999998347,0.009599999999999831,-552.9599999996417,0.030239999999999156,113.6994049027973
73,14.440720000000002,14.451600000000003,14.474640000000003,0.20895999999999937,-0.00639999999999899,0.009519999999999307,-449.27999999972985,0.03392000000000017,102.37039157870866
74,14.629360000000002,14.639120000000002,14.661840000000002,0.18863999999999947,-0.017759999999999526,0.010159999999999947,-760.3200000002328,0.03247999999999962,106.48163659902087
75,14.842480000000002,14.852400000000003,14.876560000000003,0.21311999999999998,-0.004639999999999561,0.01224000000000025,-138.24000000037802,0.03408000000000122,101.93626886607429
76,15.030160000000002,15.041520000000002,15.064080000000002,0.1876800000000003,-0.01695999999999928,0.012719999999999843,552.9599999999296,0.03392000000000017,102.37039157870866
77,15.243440000000003,15.253840000000002,15.275920000000003,0.21328000000000102,-0.003679999999998268,0.012800000000000367,380.1600000003323,0.03247999999999962,106.48163659902087
78,15.433680000000003,15.441040000000003,15.464400000000003,0.1902399999999993,-0.01343999999999898,0.011520000000000863,967.6800000003443,0.030720000000000525,112.0597165748395
79,15.644400000000003,15.654000000000002,15.677520000000003,0.21072000000000024,-0.002719999999998751,0.010240000000000471,967.6799999999606,0.03312000000000026,104.60774608780034
80,15.842320000000003,15.854320000000003,15.865520000000002,0.19791999999999987,-0.0047999999999988885,0.006400000000000183,2073.599999999916,0.02319999999999922,145.89861647635487
81,16.043760000000002,16.054320000000004,16.0772,0.20143999999999984,-0.003359999999999058,0.0017599999999999838,1727.9999999999536,0.033439999999998804,103.6992024250827
82,16.231440000000003,16.24104,16.26536,0.1876800000000003,-0.015679999999998778,0.006879999999999775,-2488.3200000000425,0.033919999999998396,102.3703915787135
83,16.442800000000002,16.453360000000004,16.476560000000003,0.2113599999999991,-0.004319999999999685,0.011839999999999407,-2557.4400000001115,0.0337600000000009,102.80887993441979
84,16.631760000000003,16.6412,16.66392,0.18896000000000157,-0.015359999999998125,0.011199999999998766,-138.23999999999435,0.032159999999997524,107.44810662170494
85,16.84344,16.854160000000004,16.87928,0.21167999999999765,-0.0036800000000004884,0.011359999999998038,207.35999999996756,0.035840000000000316,97.43245299114096
86,17.042800000000003,17.054320000000004,17.0652,0.1993600000000022,-0.004319999999998297,0.006159999999997723,2522.879999999789,0.022399999999997533,150.88080010763554
87,17.242800000000003,17.254640000000002,17.277680000000004,0.1999999999999993,-0.004319999999999019,0.00031999999999854367,2246.40000000028,0.03488000000000113,99.82905261734926
88,17.44104,17.453360000000004,17.46392,0.19823999999999842,-0.006080000000000613,0.000880000000000436,-518.4000000001827,0.022880000000000678,147.84868236551847
89,17.644880000000004,17.656720000000004,17.68072,0.20384000000000313,-0.002239999999997494,0.002800000000002356,69.11999999982936,0.03583999999999676,97.43245299114957
90,17.8348,17.843120000000003,17.866960000000002,0.1899199999999972,-0.012320000000000303,0.006960000000002964,-898.5599999996036,0.03216000000000108,107.44810662169412
91,18.04632,18.057840000000002,18.081840000000003,0.21152000000000015,-0.0008000000000001617,0.010800000000001475,-1036.8000000005093,0.03552000000000177,98.21595585404275
92,18.2356,18.244560000000003,18.26696,0.18928000000000011,-0.011520000000000058,0.011120000000000019,483.83999999947673,0.03135999999999939,109.95519934164903
93,18.447760000000002,18.459120000000002,18.482960000000002,0.2121600000000008,0.0006400000000007233,0.011440000000000339,483.8400000002441,0.035199999999999676,99.0146839420494
94,18.64712,18.65256,18.669680000000003,0.19935999999999865,-6.38378239159465e-16,0.0064000000000010715,2799.360000000066,0.022560000000002134,149.85542076058744
95,18.849680000000003,18.86088,18.882800000000003,0.20256000000000185,0.0025600000000012,0.0016000000000016001,2903.0399999999777,0.03312000000000026,104.60774608780034
96,19.03928,19.048400000000004,19.070800000000002,0.18959999999999866,-0.007840000000000152,0.006480000000001596,-1278.719999999792,0.03152000000000044,109.44307552320437
97,19.25016,19.261840000000003,19.285040000000002,0.2108799999999995,0.0030399999999993488,0.010640000000000427,-1589.760000000295,0.03488000000000113,99.82905261734926
98,19.439600000000002,19.449040000000004,19.470160000000003,0.18944000000000116,-0.007519999999999499,0.010719999999999175,172.79999999974115,0.030560000000001253,112.60028911671547
